* This data was exported from the Dayton Audio Test System: DATS
*
* Piston Diameter = 0 mm
* f(s)= 51.51 Hz
* R(e)= 6.219 Ohms
* Z(max)= 54.95 Ohms
* Q(ms)= 3.764
* Q(es)= 0.4804
* Q(ts)= 0.426
* V(as)= 0 liters     (0 cubic feet)
* L(e)= 0.7617 mH
* n(0)= 0 %
* SPL= 0 1W/1m
* M(ms)= 0 grams
* C(ms)= 0 mm/N
* BL= 0 
* K(r)= 0.04823 
* X(r)= 0.5565 
* K(i)= 0.01931 
* X(i)= 0.6608 
*
*
Freq            Impedance       Phase
1.029    	6.229    	5.106    
1.059    	6.229    	5.106    
1.091    	6.229    	5.106    
1.122    	6.229    	5.106    
1.155    	6.229    	5.106    
1.189    	6.229    	5.106    
1.224    	6.229    	5.106    
1.260    	6.229    	5.106    
1.297    	6.229    	5.106    
1.335    	6.232    	5.533    
1.374    	6.232    	5.533    
1.414    	6.232    	5.533    
1.456    	6.232    	5.533    
1.498    	6.232    	5.533    
1.542    	6.232    	5.533    
1.587    	6.232    	5.533    
1.634    	6.232    	5.533    
1.682    	6.225    	5.984    
1.731    	6.225    	5.984    
1.782    	6.225    	5.984    
1.834    	6.225    	5.984    
1.888    	6.225    	5.984    
1.943    	6.225    	5.984    
2.000    	6.222    	6.640    
2.059    	6.222    	6.640    
2.119    	6.222    	6.640    
2.181    	6.222    	6.640    
2.245    	6.222    	6.640    
2.311    	6.222    	6.640    
2.378    	6.222    	7.441    
2.448    	6.222    	7.441    
2.520    	6.222    	7.441    
2.594    	6.222    	7.441    
2.670    	6.230    	8.399    
2.748    	6.230    	8.399    
2.828    	6.230    	8.399    
2.911    	6.230    	8.399    
2.997    	6.249    	9.343    
3.084    	6.249    	9.343    
3.175    	6.249    	9.343    
3.268    	6.249    	9.343    
3.364    	6.271    	10.326    
3.462    	6.271    	10.326    
3.564    	6.271    	10.326    
3.668    	6.287    	11.319    
3.775    	6.287    	11.319    
3.886    	6.287    	11.319    
4.000    	6.311    	12.301    
4.117    	6.311    	12.301    
4.238    	6.311    	12.301    
4.362    	6.346    	13.272    
4.490    	6.346    	13.272    
4.621    	6.346    	13.272    
4.757    	6.398    	14.230    
4.896    	6.398    	14.230    
5.040    	6.450    	15.159    
5.187    	6.450    	15.159    
5.339    	6.505    	16.055    
5.496    	6.505    	16.055    
5.657    	6.567    	16.936    
5.823    	6.567    	16.936    
5.993    	6.629    	17.813    
6.169    	6.629    	17.813    
6.350    	6.685    	18.678    
6.536    	6.685    	18.678    
6.727    	6.745    	19.517    
6.924    	6.745    	19.517    
7.127    	6.813    	20.334    
7.336    	6.879    	21.149    
7.551    	6.879    	21.149    
7.772    	6.949    	21.962    
8.000    	7.021    	22.757    
8.234    	7.021    	22.757    
8.476    	7.095    	23.528    
8.724    	7.176    	24.274    
8.980    	7.263    	25.000    
9.243    	7.263    	25.000    
9.514    	7.357    	25.715    
9.792    	7.452    	26.411    
10.079    	7.539    	27.085    
10.375    	7.623    	27.735    
10.679    	7.715    	28.368    
10.992    	7.813    	28.988    
11.314    	7.912    	29.583    
11.645    	8.001    	30.138    
11.986    	8.091    	30.658    
12.338    	8.195    	31.153    
12.699    	8.303    	31.624    
13.071    	8.409    	32.069    
13.454    	8.510    	32.485    
13.849    	8.604    	32.880    
14.254    	8.699    	33.263    
14.672    	8.865    	33.816    
15.102    	9.026    	34.359    
15.545    	9.119    	34.724    
16.000    	9.254    	35.265    
16.469    	9.394    	35.811    
16.951    	9.531    	36.391    
17.448    	9.671    	36.998    
17.959    	9.820    	37.633    
18.486    	9.974    	38.303    
19.027    	10.149    	39.004    
19.585    	10.391    	39.959    
20.159    	10.580    	40.706    
20.749    	10.799    	41.467    
21.357    	11.122    	42.494    
21.983    	11.465    	43.538    
22.627    	11.836    	44.575    
23.290    	12.243    	45.608    
23.973    	12.703    	46.588    
24.675    	13.261    	47.463    
25.398    	13.878    	48.173    
26.143    	14.565    	48.679    
26.909    	15.586    	48.929    
27.697    	16.717    	48.667    
28.509    	17.703    	47.935    
29.344    	18.986    	46.267    
30.204    	20.432    	43.247    
31.089    	21.326    	40.096    
32.000    	21.801    	36.572    
32.938    	21.825    	33.361    
33.903    	21.597    	31.121    
34.896    	21.331    	30.286    
35.919    	21.237    	30.575    
36.971    	21.553    	31.514    
38.055    	22.253    	32.641    
39.170    	23.466    	33.736    
40.317    	25.104    	34.339    
41.499    	27.185    	34.291    
42.715    	29.689    	33.716    
43.967    	32.689    	31.962    
45.255    	36.718    	28.675    
46.581    	41.497    	23.850    
47.946    	46.368    	17.228    
49.351    	51.026    	8.729    
50.797    	54.334    	-3.296    
52.285    	54.389    	-16.194    
53.817    	50.963    	-28.040    
55.394    	45.228    	-38.233    
57.018    	39.980    	-44.804    
58.688    	35.280    	-49.251    
60.408    	30.612    	-52.738    
62.178    	26.972    	-55.026    
64.000    	24.346    	-56.235    
65.875    	22.089    	-56.842    
67.806    	20.090    	-56.900    
69.792    	18.358    	-56.657    
71.838    	16.967    	-56.207    
73.943    	15.836    	-55.347    
76.109    	14.907    	-54.401    
78.339    	14.071    	-53.684    
80.635    	13.269    	-52.912    
82.998    	12.579    	-51.983    
85.430    	11.991    	-50.884    
87.933    	11.419    	-49.603    
90.510    	10.936    	-48.458    
93.162    	10.554    	-47.128    
95.892    	10.148    	-45.328    
98.701    	9.750    	-43.609    
101.594    	9.394    	-42.127    
104.571    	9.089    	-40.569    
107.635    	8.835    	-38.856    
110.789    	8.624    	-36.339    
114.035    	8.650    	-33.520    
117.377    	8.619    	-33.720    
120.816    	8.245    	-33.511    
124.356    	8.003    	-31.737    
128.000    	7.837    	-29.415    
131.751    	7.774    	-26.825    
135.611    	7.663    	-24.980    
139.585    	7.777    	-20.987    
143.675    	8.783    	-21.717    
147.885    	8.259    	-28.053    
152.219    	7.636    	-26.487    
156.679    	7.368    	-24.205    
161.270    	7.227    	-22.197    
165.995    	7.129    	-20.411    
170.860    	7.095    	-18.706    
175.866    	7.034    	-17.365    
181.019    	7.010    	-15.964    
186.324    	6.991    	-15.041    
191.783    	6.905    	-13.923    
197.403    	6.856    	-12.431    
203.187    	6.832    	-11.122    
209.141    	6.811    	-9.888    
215.269    	6.789    	-8.560    
221.577    	6.785    	-7.314    
228.070    	6.794    	-6.106    
234.753    	6.802    	-5.120    
241.632    	6.802    	-4.041    
248.712    	6.800    	-2.941    
256.000    	6.809    	-1.844    
263.501    	6.814    	-0.760    
271.223    	6.823    	0.375    
279.170    	6.854    	1.533    
287.350    	6.890    	2.551    
295.770    	6.916    	3.514    
304.437    	6.942    	4.540    
313.358    	6.975    	5.615    
322.540    	7.025    	6.723    
331.991    	7.094    	7.782    
341.719    	7.192    	8.661    
351.732    	7.289    	9.009    
362.039    	7.285    	9.180    
372.647    	7.249    	10.056    
383.567    	7.265    	11.218    
394.806    	7.311    	12.336    
406.375    	7.381    	13.449    
418.282    	7.464    	14.483    
430.539    	7.593    	15.138    
443.155    	7.598    	15.867    
456.140    	7.795    	17.320    
469.506    	7.901    	16.332    
483.264    	7.903    	17.024    
497.424    	7.834    	17.485    
512.000    	7.857    	18.916    
527.003    	7.949    	20.142    
542.445    	8.062    	21.047    
558.340    	8.180    	22.013    
574.701    	8.282    	22.408    
591.541    	8.356    	23.564    
608.874    	8.538    	24.481    
626.715    	8.699    	24.588    
645.080    	8.707    	25.203    
663.982    	8.837    	26.479    
683.438    	9.021    	27.446    
703.464    	9.262    	28.135    
724.077    	9.525    	28.492    
745.294    	9.646    	28.349    
767.133    	9.854    	29.298    
789.612    	10.194    	29.710    
812.749    	10.656    	29.295    
836.565    	11.014    	26.487    
861.078    	10.724    	24.272    
886.309    	10.468    	24.293    
912.280    	10.296    	24.857    
939.012    	10.320    	25.680    
966.527    	10.234    	26.115    
994.849    	10.249    	27.377    
1024.000    	10.321    	27.760    
1054.005    	10.297    	28.813    
1084.890    	10.373    	29.819    
1116.680    	10.463    	30.863    
1149.401    	10.597    	31.872    
1183.081    	10.755    	32.725    
1217.748    	10.914    	33.471    
1253.431    	11.085    	34.156    
1290.159    	11.258    	34.840    
1327.964    	11.445    	35.361    
1366.876    	11.613    	35.883    
1406.929    	11.780    	36.406    
1448.155    	11.954    	37.014    
1490.589    	12.154    	37.502    
1534.266    	12.338    	38.039    
1579.224    	12.537    	38.498    
1625.499    	12.737    	38.982    
1673.129    	12.951    	39.447    
1722.156    	13.158    	39.876    
1772.619    	13.377    	40.341    
1824.561    	13.604    	40.698    
1878.024    	13.820    	41.132    
1933.055    	14.053    	41.553    
1989.697    	14.297    	41.952    
2048.000    	14.537    	42.286    
2108.011    	14.787    	42.673    
2169.780    	15.044    	43.077    
2233.360    	15.313    	43.464    
2298.802    	15.596    	43.863    
2366.162    	15.904    	44.244    
2435.496    	16.238    	44.618    
2506.862    	16.613    	44.874    
2580.318    	17.019    	45.075    
2655.927    	17.494    	44.738    
2733.752    	17.821    	43.701    
2813.857    	17.671    	43.122    
2896.309    	17.651    	43.997    
2981.178    	17.880    	44.938    
3068.533    	18.215    	45.617    
3158.448    	18.570    	46.124    
3250.997    	18.940    	46.549    
3346.259    	19.321    	46.921    
3444.312    	19.711    	47.249    
3545.238    	20.128    	47.618    
3649.121    	20.604    	47.909    
3756.049    	21.093    	48.193    
3866.109    	21.770    	48.206    
3979.395    	22.322    	47.457    
4096.000    	22.590    	46.378    
4216.022    	22.482    	46.540    
4339.561    	22.876    	47.181    
4466.720    	23.191    	47.404    
4597.605    	23.700    	47.956    
4732.325    	24.396    	48.072    
4870.992    	25.146    	47.325    
5013.723    	25.424    	45.985    
5160.637    	25.288    	44.944    
5311.855    	24.790    	45.608    
5467.504    	25.036    	47.099    
5627.714    	25.577    	47.863    
5792.619    	26.049    	48.164    
5962.355    	26.425    	48.548    
6137.066    	26.882    	49.069    
6316.896    	27.417    	49.468    
6501.995    	27.959    	49.764    
6692.518    	28.504    	49.993    
6888.623    	29.053    	50.207    
7090.476    	29.608    	50.378    
7298.242    	30.175    	50.541    
7512.097    	30.743    	50.672    
7732.218    	31.322    	50.771    
7958.790    	31.875    	50.824    
8192.000    	32.400    	50.941    
8432.044    	32.964    	51.120    
8679.122    	33.555    	51.273    
8933.439    	34.155    	51.418    
9195.209    	34.775    	51.563    
9464.649    	35.406    	51.699    
9741.985    	36.060    	51.806    
10027.447    	36.721    	51.904    
10321.273    	37.404    	51.982    
10623.710    	38.108    	51.973    
10935.008    	38.692    	51.928    
11255.428    	39.277    	52.094    
11585.238    	39.959    	52.276    
11924.711    	40.669    	52.419    
12274.132    	41.398    	52.537    
12633.791    	42.139    	52.639    
13003.989    	42.892    	52.751    
13385.035    	43.655    	52.852    
13777.247    	44.433    	52.938    
14180.951    	45.215    	53.031    
14596.485    	46.009    	53.120    
15024.194    	46.828    	53.186    
15464.437    	47.625    	53.270    
15917.579    	48.465    	53.369    
16384.000    	49.324    	53.452    
16864.088    	50.182    	53.532    
17358.243    	51.015    	53.630    
17866.879    	51.823    	53.750    
18390.418    	52.608    	53.883    
18929.299    	53.380    	54.034    
19483.969    	54.124    	54.204    
20054.893    	54.828    	54.413    
20642.546    	55.441    	54.714    
