* This data was exported from the Dayton Audio Test System: DATS
*
* Piston Diameter = 0 mm
* f(s)= 0 Hz
* R(e)= 0 Ohms
* Z(max)= 0 Ohms
* Q(ms)= 0
* Q(es)= 0
* Q(ts)= 0
* V(as)= 0 liters     (0 cubic feet)
* L(e)= 0 mH
* n(0)= 0 %
* SPL= 0 1W/1m
* M(ms)= 0 grams
* C(ms)= 0 mm/N
* BL= 0 
* K(r)= 1178 
* X(r)= -0.01519 
* K(i)= 0.006311 
* X(i)= 0.7473 
*
*
Freq            Impedance       Phase
1.029    	3118.435    	-82.262    
1.059    	3118.435    	-82.262    
1.091    	3118.435    	-82.262    
1.122    	3118.435    	-82.262    
1.155    	3118.435    	-82.262    
1.189    	3118.435    	-82.262    
1.224    	3118.435    	-82.262    
1.260    	3118.435    	-82.262    
1.297    	3118.435    	-82.262    
1.335    	2703.602    	-82.885    
1.374    	2703.602    	-82.885    
1.414    	2703.602    	-82.885    
1.456    	2703.602    	-82.885    
1.498    	2703.602    	-82.885    
1.542    	2703.602    	-82.885    
1.587    	2703.602    	-82.885    
1.634    	2703.602    	-82.885    
1.682    	2121.051    	-83.400    
1.731    	2121.051    	-83.400    
1.782    	2121.051    	-83.400    
1.834    	2121.051    	-83.400    
1.888    	2121.051    	-83.400    
1.943    	2121.051    	-83.400    
2.000    	1749.874    	-84.080    
2.059    	1749.874    	-84.080    
2.119    	1749.874    	-84.080    
2.181    	1749.874    	-84.080    
2.245    	1749.874    	-84.080    
2.311    	1749.874    	-84.080    
2.378    	1492.026    	-84.827    
2.448    	1492.026    	-84.827    
2.520    	1492.026    	-84.827    
2.594    	1492.026    	-84.827    
2.670    	1300.657    	-85.603    
2.748    	1300.657    	-85.603    
2.828    	1300.657    	-85.603    
2.911    	1300.657    	-85.603    
2.997    	1151.971    	-86.152    
3.084    	1151.971    	-86.152    
3.175    	1151.971    	-86.152    
3.268    	1151.971    	-86.152    
3.364    	1034.177    	-86.571    
3.462    	1034.177    	-86.571    
3.564    	1034.177    	-86.571    
3.668    	938.982    	-86.903    
3.775    	938.982    	-86.903    
3.886    	938.982    	-86.903    
4.000    	859.984    	-87.169    
4.117    	859.984    	-87.169    
4.238    	859.984    	-87.169    
4.362    	793.288    	-87.386    
4.490    	793.288    	-87.386    
4.621    	793.288    	-87.386    
4.757    	735.915    	-87.572    
4.896    	735.915    	-87.572    
5.040    	686.218    	-87.736    
5.187    	686.218    	-87.736    
5.339    	643.107    	-87.881    
5.496    	643.107    	-87.881    
5.657    	605.161    	-88.009    
5.823    	605.161    	-88.009    
5.993    	571.353    	-88.121    
6.169    	571.353    	-88.121    
6.350    	541.102    	-88.222    
6.536    	541.102    	-88.222    
6.727    	513.862    	-88.313    
6.924    	513.862    	-88.313    
7.127    	489.273    	-88.393    
7.336    	466.944    	-88.465    
7.551    	466.944    	-88.465    
7.772    	446.495    	-88.530    
8.000    	427.756    	-88.587    
8.234    	427.756    	-88.587    
8.476    	410.558    	-88.638    
8.724    	394.708    	-88.684    
8.980    	380.038    	-88.725    
9.243    	380.038    	-88.725    
9.514    	366.371    	-88.765    
9.792    	353.644    	-88.803    
10.079    	341.838    	-88.839    
10.375    	330.814    	-88.871    
10.679    	320.419    	-88.900    
10.992    	310.586    	-88.927    
11.314    	301.324    	-88.954    
11.645    	292.664    	-88.980    
11.986    	284.552    	-89.003    
12.338    	276.848    	-89.022    
12.699    	269.472    	-89.039    
13.071    	262.427    	-89.056    
13.454    	255.765    	-89.073    
13.849    	249.507    	-89.090    
14.254    	243.580    	-89.105    
14.672    	235.181    	-89.121    
15.102    	227.187    	-89.136    
15.545    	222.162    	-89.147    
16.000    	215.112    	-89.161    
16.469    	208.475    	-89.172    
16.951    	202.240    	-89.182    
17.448    	196.250    	-89.193    
17.959    	190.705    	-89.201    
18.486    	185.440    	-89.207    
19.027    	180.467    	-89.214    
19.585    	174.213    	-89.224    
20.159    	169.769    	-89.229    
20.749    	165.569    	-89.229    
21.357    	160.280    	-89.230    
21.983    	155.325    	-89.227    
22.627    	150.637    	-89.221    
23.290    	146.196    	-89.212    
23.973    	142.049    	-89.201    
24.675    	138.100    	-89.192    
25.398    	134.344    	-89.182    
26.143    	130.796    	-89.168    
26.909    	126.638    	-89.151    
27.697    	122.684    	-89.135    
28.509    	119.675    	-89.119    
29.344    	116.174    	-89.097    
30.204    	112.202    	-89.070    
31.089    	109.055    	-89.045    
32.000    	105.951    	-89.011    
32.938    	102.788    	-88.976    
33.903    	99.620    	-88.938    
34.896    	96.642    	-88.895    
35.919    	93.835    	-88.853    
36.971    	91.177    	-88.810    
38.055    	88.662    	-88.764    
39.170    	85.913    	-88.705    
40.317    	83.296    	-88.640    
41.499    	80.845    	-88.576    
42.715    	78.501    	-88.510    
43.967    	76.302    	-88.430    
45.255    	73.921    	-88.353    
46.581    	71.684    	-88.270    
47.946    	69.580    	-88.188    
49.351    	67.601    	-88.103    
50.797    	65.503    	-87.979    
52.285    	63.492    	-87.859    
53.817    	61.600    	-87.748    
55.394    	59.629    	-87.637    
57.018    	57.965    	-87.523    
58.688    	56.399    	-87.389    
60.408    	54.570    	-87.213    
62.178    	52.834    	-87.067    
64.000    	51.320    	-86.932    
65.875    	49.813    	-86.789    
67.806    	48.280    	-86.605    
69.792    	46.800    	-86.390    
71.838    	45.379    	-86.199    
73.943    	44.061    	-86.040    
76.109    	42.740    	-85.843    
78.339    	41.382    	-85.587    
80.635    	40.079    	-85.330    
82.998    	38.861    	-85.137    
85.430    	37.757    	-84.901    
87.933    	36.603    	-84.590    
90.510    	35.482    	-84.350    
93.162    	34.481    	-84.133    
95.892    	33.401    	-83.778    
98.701    	32.350    	-83.448    
101.594    	31.386    	-83.204    
104.571    	30.457    	-82.867    
107.635    	29.529    	-82.479    
110.789    	28.612    	-82.199    
114.035    	27.800    	-81.824    
117.377    	26.963    	-81.429    
120.816    	26.142    	-81.107    
124.356    	25.377    	-80.639    
128.000    	24.588    	-80.275    
131.751    	23.873    	-79.861    
135.611    	23.127    	-79.377    
139.585    	22.469    	-78.996    
143.675    	21.774    	-78.441    
147.885    	21.116    	-78.050    
152.219    	20.513    	-77.485    
156.679    	19.879    	-77.041    
161.270    	19.270    	-76.426    
165.995    	18.697    	-75.958    
170.860    	18.134    	-75.318    
175.866    	17.602    	-74.806    
181.019    	17.072    	-74.147    
186.324    	16.590    	-73.584    
191.783    	16.066    	-72.941    
197.403    	15.585    	-72.221    
203.187    	15.131    	-71.605    
209.141    	14.672    	-70.882    
215.269    	14.228    	-70.111    
221.577    	13.799    	-69.370    
228.070    	13.374    	-68.593    
234.753    	12.986    	-67.751    
241.632    	12.593    	-66.878    
248.712    	12.211    	-65.978    
256.000    	11.828    	-65.038    
263.501    	11.463    	-64.003    
271.223    	11.104    	-62.921    
279.170    	10.758    	-61.749    
287.350    	10.423    	-60.501    
295.770    	10.093    	-59.148    
304.437    	9.781    	-57.674    
313.358    	9.484    	-56.050    
322.540    	9.204    	-54.222    
331.991    	8.946    	-52.282    
341.719    	8.714    	-50.126    
351.732    	8.511    	-47.778    
362.039    	8.357    	-45.190    
372.647    	8.261    	-42.449    
383.567    	8.235    	-39.657    
394.806    	8.276    	-36.944    
406.375    	8.396    	-34.528    
418.282    	8.573    	-32.439    
430.539    	8.801    	-30.794    
443.155    	9.058    	-29.683    
456.140    	9.329    	-29.051    
469.506    	9.591    	-28.936    
483.264    	9.823    	-29.265    
497.424    	9.995    	-29.941    
512.000    	10.106    	-30.800    
527.003    	10.158    	-31.771    
542.445    	10.137    	-32.799    
558.340    	10.061    	-33.759    
574.701    	9.925    	-34.519    
591.541    	9.755    	-35.136    
608.874    	9.560    	-35.461    
626.715    	9.364    	-35.591    
645.080    	9.170    	-35.505    
663.982    	8.980    	-35.300    
683.438    	8.804    	-34.975    
703.464    	8.639    	-34.573    
724.077    	8.480    	-34.079    
745.294    	8.333    	-33.564    
767.133    	8.197    	-32.988    
789.612    	8.066    	-32.338    
812.749    	7.944    	-31.683    
836.565    	7.824    	-30.980    
861.078    	7.717    	-30.239    
886.309    	7.618    	-29.494    
912.280    	7.531    	-28.677    
939.012    	7.449    	-27.839    
966.527    	7.385    	-26.978    
994.849    	7.337    	-26.122    
1024.000    	7.271    	-25.441    
1054.005    	7.210    	-24.577    
1084.890    	7.172    	-23.676    
1116.680    	7.159    	-22.768    
1149.401    	7.172    	-22.040    
1183.081    	7.203    	-21.627    
1217.748    	7.213    	-21.537    
1253.431    	7.181    	-21.724    
1290.159    	7.096    	-21.872    
1327.964    	6.975    	-21.733    
1366.876    	6.842    	-21.269    
1406.929    	6.720    	-20.476    
1448.155    	6.613    	-19.435    
1490.589    	6.518    	-18.032    
1534.266    	6.454    	-16.021    
1579.224    	6.565    	-13.041    
1625.499    	7.168    	-12.273    
1673.129    	7.240    	-17.314    
1722.156    	6.859    	-18.153    
1772.619    	6.662    	-17.351    
1824.561    	6.552    	-16.440    
1878.024    	6.480    	-15.610    
1933.055    	6.430    	-14.843    
1989.697    	6.401    	-14.041    
2048.000    	6.356    	-13.367    
2108.011    	6.319    	-12.688    
2169.780    	6.298    	-12.012    
2233.360    	6.271    	-11.361    
2298.802    	6.249    	-10.704    
2366.162    	6.236    	-10.082    
2435.496    	6.222    	-9.429    
2506.862    	6.210    	-8.832    
2580.318    	6.196    	-8.187    
2655.927    	6.187    	-7.538    
2733.752    	6.179    	-6.737    
2813.857    	6.265    	-6.123    
2896.309    	6.233    	-6.401    
2981.178    	6.201    	-5.767    
3068.533    	6.193    	-5.230    
3158.448    	6.186    	-4.727    
3250.997    	6.178    	-4.218    
3346.259    	6.173    	-3.710    
3444.312    	6.172    	-3.219    
3545.238    	6.171    	-2.715    
3649.121    	6.173    	-2.219    
3756.049    	6.173    	-1.734    
3866.109    	6.175    	-1.256    
3979.395    	6.181    	-0.739    
4096.000    	6.193    	-0.335    
4216.022    	6.192    	0.078    
4339.561    	6.192    	0.545    
4466.720    	6.196    	0.986    
4597.605    	6.202    	1.448    
4732.325    	6.205    	1.906    
4870.992    	6.212    	2.363    
5013.723    	6.221    	2.821    
5160.637    	6.225    	3.272    
5311.855    	6.236    	3.737    
5467.504    	6.244    	4.150    
5627.714    	6.258    	4.588    
5792.619    	6.268    	5.049    
5962.355    	6.277    	5.509    
6137.066    	6.289    	5.953    
6316.896    	6.303    	6.383    
6501.995    	6.318    	6.830    
6692.518    	6.332    	7.263    
6888.623    	6.348    	7.712    
7090.476    	6.362    	8.128    
7298.242    	6.380    	8.550    
7512.097    	6.395    	8.990    
7732.218    	6.411    	9.422    
7958.790    	6.425    	9.883    
8192.000    	6.440    	10.312    
8432.044    	6.458    	10.763    
8679.122    	6.479    	11.233    
8933.439    	6.498    	11.703    
9195.209    	6.518    	12.165    
9464.649    	6.536    	12.632    
9741.985    	6.563    	13.100    
10027.447    	6.587    	13.569    
10321.273    	6.612    	14.066    
10623.710    	6.638    	14.564    
10935.008    	6.671    	15.028    
11255.428    	6.694    	15.507    
11585.238    	6.720    	15.966    
11924.711    	6.751    	16.483    
12274.132    	6.776    	16.944    
12633.791    	6.805    	17.420    
13003.989    	6.834    	17.942    
13385.035    	6.866    	18.491    
13777.247    	6.898    	19.003    
14180.951    	6.932    	19.548    
14596.485    	6.965    	20.089    
15024.194    	7.009    	20.643    
15464.437    	7.046    	21.194    
15917.579    	7.088    	21.755    
16384.000    	7.133    	22.343    
16864.088    	7.178    	22.885    
17358.243    	7.225    	23.479    
17866.879    	7.277    	24.036    
18390.418    	7.329    	24.617    
18929.299    	7.380    	25.170    
19483.969    	7.437    	25.754    
20054.893    	7.492    	26.391    
20642.546    	7.565    	26.868    
