* This data was exported from the Dayton Audio Test System: DATS
*
* Piston Diameter = 0 mm
* f(s)= 42.12 Hz
* R(e)= 6.574 Ohms
* Z(max)= 101.7 Ohms
* Q(ms)= 6.925
* Q(es)= 0.4786
* Q(ts)= 0.4477
* V(as)= 0 liters     (0 cubic feet)
* L(e)= 0.735 mH
* n(0)= 0 %
* SPL= 0 1W/1m
* M(ms)= 0 grams
* C(ms)= 0 mm/N
* BL= 0 
* K(r)= 0.06974 
* X(r)= 0.5262 
* K(i)= 0.01653 
* X(i)= 0.6771 
*
*
Freq            Impedance       Phase
1.029    	6.770    	4.187    
1.059    	6.770    	4.187    
1.091    	6.770    	4.187    
1.122    	6.770    	4.187    
1.155    	6.770    	4.187    
1.189    	6.770    	4.187    
1.224    	6.770    	4.187    
1.260    	6.770    	4.187    
1.297    	6.770    	4.187    
1.335    	6.695    	4.842    
1.374    	6.695    	4.842    
1.414    	6.695    	4.842    
1.456    	6.695    	4.842    
1.498    	6.695    	4.842    
1.542    	6.695    	4.842    
1.587    	6.695    	4.842    
1.634    	6.695    	4.842    
1.682    	6.549    	5.351    
1.731    	6.549    	5.351    
1.782    	6.549    	5.351    
1.834    	6.549    	5.351    
1.888    	6.549    	5.351    
1.943    	6.549    	5.351    
2.000    	6.501    	6.326    
2.059    	6.501    	6.326    
2.119    	6.501    	6.326    
2.181    	6.501    	6.326    
2.245    	6.501    	6.326    
2.311    	6.501    	6.326    
2.378    	6.468    	7.430    
2.448    	6.468    	7.430    
2.520    	6.468    	7.430    
2.594    	6.468    	7.430    
2.670    	6.512    	8.642    
2.748    	6.512    	8.642    
2.828    	6.512    	8.642    
2.911    	6.512    	8.642    
2.997    	6.566    	9.458    
3.084    	6.566    	9.458    
3.175    	6.566    	9.458    
3.268    	6.566    	9.458    
3.364    	6.593    	10.343    
3.462    	6.593    	10.343    
3.564    	6.593    	10.343    
3.668    	6.605    	11.324    
3.775    	6.605    	11.324    
3.886    	6.605    	11.324    
4.000    	6.582    	12.368    
4.117    	6.582    	12.368    
4.238    	6.582    	12.368    
4.362    	6.599    	13.444    
4.490    	6.599    	13.444    
4.621    	6.599    	13.444    
4.757    	6.674    	14.433    
4.896    	6.674    	14.433    
5.040    	6.759    	15.347    
5.187    	6.759    	15.347    
5.339    	6.822    	16.209    
5.496    	6.822    	16.209    
5.657    	6.838    	17.088    
5.823    	6.838    	17.088    
5.993    	6.860    	18.026    
6.169    	6.860    	18.026    
6.350    	6.913    	18.965    
6.536    	6.913    	18.965    
6.727    	6.982    	19.873    
6.924    	6.982    	19.873    
7.127    	7.055    	20.741    
7.336    	7.099    	21.610    
7.551    	7.099    	21.610    
7.772    	7.134    	22.538    
8.000    	7.203    	23.484    
8.234    	7.203    	23.484    
8.476    	7.295    	24.396    
8.724    	7.384    	25.256    
8.980    	7.450    	26.081    
9.243    	7.450    	26.081    
9.514    	7.512    	26.926    
9.792    	7.606    	27.783    
10.079    	7.714    	28.599    
10.375    	7.807    	29.371    
10.679    	7.881    	30.136    
10.992    	7.941    	30.936    
11.314    	8.018    	31.768    
11.645    	8.119    	32.573    
11.986    	8.210    	33.336    
12.338    	8.276    	34.106    
12.699    	8.345    	34.904    
13.071    	8.447    	35.708    
13.454    	8.576    	36.479    
13.849    	8.698    	37.204    
14.254    	8.800    	37.923    
14.672    	8.987    	39.008    
15.102    	9.201    	40.019    
15.545    	9.326    	40.631    
16.000    	9.496    	41.542    
16.469    	9.699    	42.440    
16.951    	9.904    	43.274    
17.448    	10.100    	44.138    
17.959    	10.339    	45.052    
18.486    	10.591    	45.959    
19.027    	10.837    	46.898    
19.585    	11.217    	48.147    
20.159    	11.517    	49.030    
20.749    	11.840    	49.893    
21.357    	12.324    	50.963    
21.983    	12.808    	51.965    
22.627    	13.326    	52.920    
23.290    	13.840    	53.825    
23.973    	14.377    	54.724    
24.675    	14.940    	55.624    
25.398    	15.557    	56.576    
26.143    	16.237    	57.566    
26.909    	17.212    	58.864    
27.697    	18.336    	60.138    
28.509    	19.398    	61.082    
29.344    	20.925    	62.049    
30.204    	23.114    	62.786    
31.089    	25.262    	62.985    
32.000    	28.002    	62.671    
32.938    	31.406    	61.799    
33.903    	35.668    	60.235    
34.896    	40.766    	57.914    
35.919    	46.904    	54.705    
36.971    	54.362    	50.383    
38.055    	63.404    	44.593    
39.170    	76.191    	35.189    
40.317    	89.814    	22.320    
41.499    	99.629    	6.514    
42.715    	99.673    	-10.462    
43.967    	88.751    	-29.997    
45.255    	72.220    	-44.441    
46.581    	58.311    	-52.776    
47.946    	48.331    	-57.363    
49.351    	41.240    	-59.852    
50.797    	35.568    	-61.390    
52.285    	31.360    	-62.254    
53.817    	28.233    	-62.645    
55.394    	25.503    	-62.684    
57.018    	23.506    	-62.470    
58.688    	21.838    	-62.072    
60.408    	20.106    	-61.483    
62.178    	18.649    	-60.892    
64.000    	17.541    	-60.351    
65.875    	16.547    	-59.615    
67.806    	15.606    	-58.686    
69.792    	14.779    	-57.776    
71.838    	14.077    	-56.858    
73.943    	13.484    	-55.924    
76.109    	12.953    	-54.771    
78.339    	12.446    	-53.218    
80.635    	11.922    	-51.604    
82.998    	11.446    	-50.233    
85.430    	11.033    	-48.876    
87.933    	10.613    	-47.529    
90.510    	10.262    	-46.561    
93.162    	10.031    	-45.585    
95.892    	9.828    	-43.834    
98.701    	9.559    	-41.781    
101.594    	9.242    	-40.260    
104.571    	8.993    	-39.047    
107.635    	8.785    	-37.725    
110.789    	8.582    	-36.586    
114.035    	8.485    	-35.412    
117.377    	8.361    	-33.536    
120.816    	8.145    	-32.134    
124.356    	8.042    	-31.035    
128.000    	7.948    	-29.399    
131.751    	7.793    	-28.086    
135.611    	7.720    	-26.864    
139.585    	7.620    	-25.390    
143.675    	7.546    	-24.162    
147.885    	7.470    	-22.665    
152.219    	7.393    	-21.532    
156.679    	7.347    	-20.179    
161.270    	7.276    	-18.861    
165.995    	7.247    	-17.667    
170.860    	7.193    	-16.385    
175.866    	7.161    	-15.149    
181.019    	7.125    	-13.969    
186.324    	7.103    	-12.776    
191.783    	7.083    	-11.599    
197.403    	7.064    	-10.396    
203.187    	7.051    	-9.273    
209.141    	7.049    	-8.137    
215.269    	7.043    	-6.984    
221.577    	7.050    	-5.869    
228.070    	7.056    	-4.865    
234.753    	7.056    	-3.914    
241.632    	7.055    	-2.835    
248.712    	7.069    	-1.777    
256.000    	7.078    	-0.718    
263.501    	7.104    	0.319    
271.223    	7.123    	1.349    
279.170    	7.150    	2.385    
287.350    	7.181    	3.363    
295.770    	7.216    	4.390    
304.437    	7.259    	5.386    
313.358    	7.309    	6.411    
322.540    	7.377    	7.427    
331.991    	7.478    	8.323    
341.719    	7.591    	8.723    
351.732    	7.627    	8.696    
362.039    	7.578    	9.221    
372.647    	7.580    	10.233    
383.567    	7.619    	11.204    
394.806    	7.662    	12.039    
406.375    	7.702    	12.899    
418.282    	7.751    	13.791    
430.539    	7.803    	14.667    
443.155    	7.867    	15.548    
456.140    	7.931    	16.391    
469.506    	8.002    	17.218    
483.264    	8.071    	18.063    
497.424    	8.150    	18.921    
512.000    	8.239    	19.755    
527.003    	8.330    	20.559    
542.445    	8.427    	21.454    
558.340    	8.548    	22.333    
574.701    	8.679    	23.054    
591.541    	8.798    	23.738    
608.874    	8.934    	24.487    
626.715    	9.097    	25.224    
645.080    	9.285    	25.641    
663.982    	9.406    	25.978    
683.438    	9.558    	26.558    
703.464    	9.721    	26.944    
724.077    	9.876    	27.415    
745.294    	10.067    	28.115    
767.133    	10.355    	28.587    
789.612    	10.665    	28.587    
812.749    	11.089    	28.234    
836.565    	11.487    	25.780    
861.078    	11.288    	22.725    
886.309    	10.788    	22.018    
912.280    	10.479    	23.395    
939.012    	10.496    	24.721    
966.527    	10.465    	25.015    
994.849    	10.333    	26.263    
1024.000    	10.385    	27.861    
1054.005    	10.488    	29.059    
1084.890    	10.626    	30.222    
1116.680    	10.781    	31.181    
1149.401    	10.947    	32.011    
1183.081    	11.114    	32.778    
1217.748    	11.296    	33.465    
1253.431    	11.481    	34.113    
1290.159    	11.681    	34.617    
1327.964    	11.865    	35.043    
1366.876    	12.027    	35.466    
1406.929    	12.188    	35.976    
1448.155    	12.365    	36.438    
1490.589    	12.529    	36.949    
1534.266    	12.720    	37.491    
1579.224    	12.920    	38.007    
1625.499    	13.120    	38.490    
1673.129    	13.331    	38.979    
1722.156    	13.546    	39.409    
1772.619    	13.758    	39.857    
1824.561    	13.986    	40.297    
1878.024    	14.219    	40.746    
1933.055    	14.463    	41.160    
1989.697    	14.712    	41.535    
2048.000    	14.957    	41.915    
2108.011    	15.222    	42.306    
2169.780    	15.496    	42.698    
2233.360    	15.767    	43.028    
2298.802    	16.064    	43.481    
2366.162    	16.396    	43.855    
2435.496    	16.770    	44.193    
2506.862    	17.225    	44.323    
2580.318    	17.698    	43.758    
2655.927    	17.836    	42.666    
2733.752    	17.719    	42.772    
2813.857    	17.817    	43.584    
2896.309    	18.062    	44.348    
2981.178    	18.380    	45.005    
3068.533    	18.726    	45.497    
3158.448    	19.084    	45.924    
3250.997    	19.467    	46.297    
3346.259    	19.857    	46.653    
3444.312    	20.258    	47.024    
3545.238    	20.729    	47.402    
3649.121    	21.243    	47.613    
3756.049    	21.877    	47.875    
3866.109    	22.713    	47.172    
3979.395    	22.891    	45.214    
4096.000    	22.542    	45.506    
4216.022    	22.798    	46.538    
4339.561    	23.322    	47.260    
4466.720    	23.972    	47.340    
4597.605    	24.547    	47.268    
4732.325    	25.260    	46.536    
4870.992    	25.438    	44.879    
5013.723    	24.967    	44.701    
5160.637    	24.922    	45.715    
5311.855    	25.193    	46.684    
5467.504    	25.627    	47.481    
5627.714    	26.119    	47.963    
5792.619    	26.590    	48.377    
5962.355    	27.088    	48.775    
6137.066    	27.608    	49.080    
6316.896    	28.135    	49.334    
6501.995    	28.674    	49.565    
6692.518    	29.222    	49.756    
6888.623    	29.767    	49.915    
7090.476    	30.318    	50.065    
7298.242    	30.874    	50.209    
7512.097    	31.450    	50.318    
7732.218    	31.995    	50.391    
7958.790    	32.527    	50.513    
8192.000    	33.086    	50.678    
8432.044    	33.672    	50.842    
8679.122    	34.271    	50.994    
8933.439    	34.893    	51.137    
9195.209    	35.522    	51.265    
9464.649    	36.165    	51.373    
9741.985    	36.818    	51.484    
10027.447    	37.488    	51.577    
10321.273    	38.175    	51.626    
10623.710    	38.815    	51.629    
10935.008    	39.420    	51.721    
11255.428    	40.073    	51.879    
11585.238    	40.786    	52.033    
11924.711    	41.510    	52.149    
12274.132    	42.251    	52.262    
12633.791    	43.009    	52.371    
13003.989    	43.774    	52.462    
13385.035    	44.555    	52.550    
13777.247    	45.342    	52.640    
14180.951    	46.136    	52.720    
14596.485    	46.944    	52.816    
15024.194    	47.754    	52.874    
15464.437    	48.578    	52.972    
15917.579    	49.436    	53.058    
16384.000    	50.300    	53.137    
16864.088    	51.170    	53.210    
17358.243    	52.023    	53.310    
17866.879    	52.863    	53.420    
18390.418    	53.674    	53.545    
18929.299    	54.466    	53.684    
19483.969    	55.223    	53.835    
20054.893    	55.946    	54.036    
20642.546    	56.590    	54.304    
